995
995
995
995
995
995
995
995
1000
997
995
994
992
993
992
989
988
987
990
993
989
988
986
988
993
997
993
986
983
977
979
975
974
972
969
969
969
971
973
971
969
966
966
966
966
967
965
963
967
969
969
968
967
963
966
964
968
966
964
961
960
957
952
947
947
943
933
927
927
939
958
980
1010
1048
1099
1148
1180
1192
1177
1128
1058
991
951
937
939
950
958
959
957
955
958
959
961
962
960
957
956
959
955
957
958
957
958
959
958
958
955
953
957
959
963
960
960
958
956
957
956
955
953
953
956
958
958
958
956
954
959
959
958
958
957
957
956
958
956
954
953
954
955
958
960
957
958
955
958
957
957
955
955
953
956
956
957
958
954
954
955
957
957
957
954
953
953
955
955
957
954
952
952
952
951
952
950
947
950
952
953
952
949
949
951
951
952
952
951
950
953
958
959
959
957
956
961
964
964
966
965
966
967
969
973
974
974
971
973
975
978
975
975
973
973
976
974
973
975
973
974
974
971
972
972
971
970
971
972
969
968
966
969
970
972
968
968
967
969
969
971
970
967
966
968
969
967
968
964
964
963
965
964
962
962
963
965
967
967
966
965
962
966
965
964
963
962
959
962
964
966
962
959
958
961
964
963
962
960
958
959
961
962
963
963
962
964
963
966
964
964
963
963
966
968
965
963
961
963
965
966
968
970
969
969
970
974
974
973
979
980
983
984
983
981
978
980
979
979
979
978
977
976
977
980
982
983
975
967
967
964
962
958
958
959
961
960
961
959
956
955
956
956
954
955
953
958
957
958
960
955
953
956
958
959
958
954
951
952
948
939
935
929
922
917
923
941
964
992
1021
1071
1122
1168
1199
1212
1205
1175
1122
1057
1002
970
946
934
929
933
939
946
946
947
946
948
948
948
945
947
947
947
949
945
942
942
944
945
946
943
945
947
949
946
946
943
942
942
946
946
945
943
941
944
942
943
942
941
942
944
944
945
946
943
942
946
946
947
947
942
943
945
946
949
946
945
942
944
946
946
947
943
941
941
944
945
943
941
940
940
942
941
939
940
937
938
938
940
938
934
933
934
937
935
934
933
930
932
933
934
933
930
929
932
934
935
936
937
936
942
945
950
951
952
951
956
959
961
960
958
958
960
962
964
964
960
960
961
963
963
965
960
958
963
962
964
964
960
959
962
963
961
963
961
961
962
965
966
963
962
960
961
964
961
961
961
958
961
960
961
959
957
956
957
957
958
959
955
954
955
957
958
958
955
955
955
960
958
957
956
953
957
958
958
957
953
952
953
954
956
955
955
955
955
958
958
957
955
954
954
956
958
955
955
953
954
956
958
956
956
956
958
957
958
957
955
955
956
958
961
965
964
965
967
969
971
971
971
973
974
976
979
981
976
975
976
975
977
975
974
969
969
971
974
979
980
978
971
970
968
967
963
960
956
958
957
957
953
950
952
955
954
953
951
949
948
950
951
951
948
947
948
949
953
950
946
943
942
937
931
926
920
913
910
919
943
974
1006
1048
1106
1162
1201
1216
1194
1128
1034
960
924
923
935
941
945
946
945
946
945
943
945
943
946
945
945
942
943
944
944
941
943
940
941
943
943
940
940
937
940
942
942
943
939
938
940
941
942
942
939
940
944
945
944
944
945
941
943
946
944
944
941
939
939
941
941
942
939
939
940
941
944
944
942
939
942
943
945
944
944
943
947
944
946
946
944
941
943
943
942
941
940
940
939
941
941
942
937
938
937
940
940
940
940
939
939
941
945
945
946
949
952
956
957
958
957
957
959
960
963
963
961
962
963
964
964
964
962
962
962
961
964
963
961
960
959
962
963
963
960
959
963
962
965
962
959
958
960
960
960
959
954
954
956
957
958
957
956
952
954
954
953
952
953
951
953
954
956
953
954
951
951
954
953
954
950
948
950
952
951
952
951
948
950
951
954
954
954
950
951
955
955
956
953
951
952
953
953
953
949
947
953
952
953
952
952
950
952
955
953
955
955
955
956
962
963
963
962
963
966
967
969
968
968
969
971
973
975
972
971
969
968
971
970
969
968
969
968
969
971
973
976
972
968
962
962
955
952
948
947
948
950
949
947
946
945
947
947
947
945
943
944
949
949
946
945
941
943
944
946
943
939
932
929
923
922
919
916
904
895
898
909
925
947
970
1001
1042
1098
1151
1186
1196
1178
1119
1037
963
924
920
929
942
946
946
944
942
943
947
946
945
943
942
943
944
946
945
942
941
942
945
943
942
943
943
942
946
947
946
945
944
944
944
945
945
943
943
944
945
947
949
947
945
946
947
949
947
945
945
947
949
949
947
945
946
946
951
949
947
945
948
947
949
948
946
948
949
949
949
949
948
946
946
951
950
949
947
946
946
949
951
947
948
946
949
949
951
950
947
945
947
947
950
951
950
949
954
957
960
961
960
959
961
965
967
964
965
967
967
968
970
968
966
965
965
966
968
966
965
962
965
967
968
969
965
963
964
965
965
967
964
963
964
965
964
963
961
962
961
965
964
962
958
956
958
960
960
961
959
957
958
961
960
960
958
955
956
957
958
957
955
954
955
956
957
957
958
957
956
957
960
956
956
954
951
952
955
955
954
954
954
956
956
955
955
948
952
952
955
955
954
953
955
958
958
957
957
956
958
960
966
966
964
963
967
968
969
968
969
970
971
974
978
975
976
973
973
975
977
973
971
972
973
970
971
968
973
974
975
971
968
964
961
959
957
955
958
957
955
952
954
956
957
955
952
951
949
950
951
951
948
949
949
951
950
952
950
948
951
952
954
953
950
947
945
938
935
927
921
911
913
929
953
980
1013
1061
1119
1165
1188
1180
1131
1053
984
940
924
928
934
942
944
946
946
944
943
939
939
943
945
943
943
941
943
947
946
945
945
945
945
947
946
946
944
939
942
944
945
944
943
939
941
943
943
943
942
941
943
940
943
942
942
940
941
943
945
945
945
944
945
945
943
943
940
937
941
943
945
946
941
943
943
944
945
945
943
940
941
944
945
944
943
939
939
939
940
939
934
935
934
937
935
930
933
932
936
937
939
938
935
934
935
938
940
942
939
940
943
948
950
951
951
951
955
958
961
963
963
960
962
962
963
962
961
960
961
963
963
965
962
960
962
961
965
964
963
964
967
968
966
965
963
959
963
964
964
961
959
957
959
961
960
957
958
956
959
959
960
961
957
957
955
957
959
958
961
957
958
958
958
958
957
956
958
960
961
959
957
953
955
956
957
960
959
954
958
961
961
958
958
957
957
958
958
958
956
956
956
959
959
959
955
954
956
958
960
962
963
963
969
970
973
972
971
972
974
977
977
980
977
977
980
978
979
977
975
973
976
978
978
974
973
974
978
983
985
982
978
970
970
967
967
962
958
956
956
955
954
954
956
953
955
956
956
955
953
950
953
950
955
956
952
948
952
955
954
954
953
948
946
945
939
933
929
922
915
916
925
943
965
992
1032
1087
1143
1184
1201
1183
1128
1050
981
939
924
926
934
944
946
945
945
944
946
948
947
947
944
942
942
946
946
943
943
941
942
945
945
944
941
941
941
944
946
946
942
941
943
945
945
945
943
942
942
944
946
945
942
939
941
943
942
943
941
939
939
942
945
946
944
942
942
944
946
942
940
940
941
941
943
940
941
939
942
944
943
944
944
942
944
945
945
943
942
939
939
942
942
940
938
935
936
937
938
938
934
935
935
937
937
935
936
934
938
938
941
944
944
947
951
957
958
959
958
958
962
965
967
966
966
962
965
967
968
964
966
965
966
968
969
969
966
966
967
970
970
970
969
966
967
969
969
966
965
963
965
965
967
966
964
963
962
965
964
963
962
959
959
961
962
961
961
959
960
962
960
961
958
958
960
962
962
962
958
957
958
960
959
959
958
957
958
959
959
960
959
958
959
961
963
959
961
957
958
962
960
958
958
957
958
958
960
960
958
958
959
961
961
961
958
958
960
961
963
963
965
961
964
969
973
973
972
971
973
977
978
979
980
980
981
984
983
983
979
977
976
978
981
976
976
974
977
982
984
980
973
969
967
964
963
960
958
959
960
958
958
957
956
955
956
957
960
959
957
955
955
955
957
956
955
953
956
956
956
956
955
953
951
950
943
935
928
925
920
917
923
941
968
997
1037
1084
1140
1186
1213
1208
1179
1113
1028
965
935
930
939
948
952
952
950
948
948
949
950
951
950
947
947
949
950
950
947
945
947
947
946
947
945
942
944
945
948
945
945
944
944
945
946
946
945
943
946
947
949
949
948
946
947
950
950
950
949
947
950
946
949
950
948
946
946
947
949
949
947
945
946
947
949
948
947
946
948
948
950
950
951
946
951
951
952
949
948
944
946
949
949
950
947
946
946
946
946
949
947
945
948
950
949
949
946
943
949
950
952
949
947
948
950
952
955
955
958
958
961
962
965
967
967
965
968
970
968
968
968
966
966
968
969
968
967
966
966
968
968
967
966
964
965
967
968
967
967
965
967
968
969
968
966
962
963
967
970
970
969
967
967
970
971
971
971
968
971
975
977
977
974
974
975
981
980
975
973
978
983
982
980
978
976
976
975
974
970
967
961
960
960
962
958